frame,y,x,mass,size,ecc,signal,raw_mass,ep,frame,particle
0,760.4277520079119,2462.5855075774357,37192.55220200119,5.000893821165514,0.34194349069402663,645.9168948036895,85006.0,,0,1
1,760.2498042582331,2461.4342745722006,38213.73721837638,5.022730834748179,0.2930222750995096,630.4770698575497,85385.0,,1,1
2,760.1660963971029,2459.5788072838845,37742.50493807485,4.997501367774883,0.2888896694224872,645.9977735372294,84320.0,,2,1
3,760.0012667375133,2457.1785353347504,37939.00619366457,4.944947856006015,0.26820427801963415,660.5559965201402,85385.0,,3,1
4,759.7287844187913,2453.960512811129,37676.65949724472,4.907756989186678,0.26487564651435946,664.449953297905,85783.0,,4,1
5,759.3523154129814,2449.577562314581,37881.1598699247,4.79111078586722,0.17598662173922625,688.3034161187915,83524.0,,5,1
6,758.9413091808979,2444.2333538211665,37375.5304066513,4.621618114416577,0.1377994497639303,682.1433035837072,83527.0,,6,1
7,758.4325502963303,2437.853724097011,35201.99678359588,4.484438656169681,0.10761449625277325,713.6683326041722,79364.0,,7,1
8,757.8210611731412,2430.4252679628917,33672.02458250619,4.441018779724268,0.06283087788531047,685.798574639904,75408.0,,8,1
9,757.4676033834967,2422.329749789614,31932.07108916303,4.3864740247113225,0.10830870124015696,652.0070946464627,71940.0,,9,1
10,757.3664978585977,2413.5767205304714,31129.17620402461,4.2406974968433575,0.13602945927553786,641.7759900347095,67235.0,,10,1
11,757.3776377762154,2404.5305856142973,32066.521522380943,4.340854028218149,0.10962110454212418,639.0630171152068,69383.0,,11,1
12,757.5814746525325,2395.20992960857,33046.29560444865,4.405033341593496,0.07833548284390746,656.98131746327,73710.0,,12,1
13,757.8050106153053,2385.635858280147,33621.094158748594,4.5625708594027214,0.08110324426751844,658.297836154896,74895.0,,13,1
14,757.8056446525138,2375.787923840496,33767.54475120186,4.441958510353684,0.08287629728363921,667.3594853992275,74715.0,,14,1
15,757.318812449005,2365.9620409505746,32621.11782027823,4.482455287721308,0.08675328263328491,577.7719463487347,71181.0,,15,1
16,757.0412216921361,2355.783639026782,31739.068895303153,4.318554367588504,0.10277025489650053,622.6584688237263,69997.0,,16,1
17,756.9332036705997,2345.796637956504,32631.50332536911,4.376629117255482,0.07981966621890145,652.0150030671891,70562.0,,17,1
18,756.7414553742673,2335.448783229264,32728.36030515029,4.484495180097141,0.08238182689741752,632.0951551370972,72850.0,,18,1
19,756.2426214836812,2325.0655890016096,33975.20191430469,4.483579088675432,0.07295472089141743,618.0750977410057,73454.0,,19,1
20,755.4450301610226,2314.7537730538124,31781.605209295154,4.501039416346276,0.110286283206129,609.425728449896,70721.0,,20,1
21,754.5760526102421,2304.050823360381,31422.515447048976,4.538324937416403,0.04089225608163264,583.7981880635155,70426.0,,21,1
22,753.4443211410405,2293.572707233238,32113.674079901342,4.531244084134931,0.05236369697861998,589.1789591337871,72340.0,,22,1
23,751.7418993339439,2283.200485123995,31990.616692567997,4.506164178071315,0.043493622568558335,592.6951705135766,73999.0,,23,1
24,749.4639826489376,2273.0766702548176,33368.585422508564,4.504545207859097,0.03950483018784085,602.9665788187609,76077.0,,24,1
25,746.6954004686564,2263.22152725605,34638.66388180392,4.412962064390308,0.07923849235819622,622.6566389367813,79264.0,,25,1
26,743.2694773651365,2254.0423438893986,36226.04670620738,4.386537214610608,0.08993380866402519,649.9022222983158,83540.0,,26,1
27,739.3927637202976,2246.112575316462,38115.807932114556,4.447906261733182,0.11429233069580186,688.6012076081383,87890.0,,27,1
28,735.6432894689195,2239.4392659168434,39079.829471241326,4.411088036012178,0.12531913611274664,741.9328706150337,91566.0,,28,1
29,732.2465406811789,2234.0033923116857,38271.810390345476,4.5467576556784355,0.07251338610131222,757.042719744555,88424.0,,29,1
30,729.9374232774262,2228.7162007114134,37547.055951191825,4.611447504777493,0.08364565603178004,725.581045653704,86939.0,,30,1
31,728.1813160462228,2222.785623463673,36590.78129667693,4.459839687848276,0.1130323835515103,759.6034224543607,83895.0,,31,1
32,726.7283452018173,2216.029556245307,35128.13450379918,4.391642745949033,0.10812230207697399,747.9865365372918,81870.0,,32,1
33,725.1459940701887,2208.672020914739,33931.43402643487,4.4310985840737995,0.129109766115347,735.4211237281446,78033.0,,33,1
34,723.3323294646708,2200.8447376989384,32717.820182395077,4.329626837619993,0.19566222406107128,699.5311622278059,75027.0,,34,1
35,721.718142489994,2193.0828117635106,31245.35074802679,4.397108725109872,0.1543477834216367,646.0327338898926,73472.0,,35,1
36,720.0146052895362,2184.862069607271,29179.377518446316,4.391300450758945,0.1704274687403001,624.3687831269854,68774.0,,36,1
37,718.3039191104202,2176.481638364561,28757.862486659444,4.32574206090793,0.2126085494004047,620.9604115592215,66071.0,,37,1
38,717.1734812221644,2167.829458536684,27474.045196245694,4.451297829399832,0.11724539740540692,585.5813437146796,64630.0,,38,1
39,715.4959307013404,2159.1171674811376,28981.445344396157,4.331384426646872,0.18063646762311078,600.3196208641289,67063.0,,39,1
40,714.4614756054482,2150.355130556273,28934.525772303557,4.52028687438056,0.17064948388373524,577.941092480648,68530.0,,40,1
41,713.8435208301893,2141.2413527944864,28238.09137037732,4.48414368352764,0.18588426749977055,531.9717189365867,66172.0,,41,1
42,713.750770735452,2131.980057861604,27312.099627369782,4.593366789933336,0.21376597306389378,459.233751716369,65466.0,,42,1
43,713.9732787630033,2122.4612587301017,27045.339039733957,4.658902056713435,0.18868858227796328,431.07325015370157,65203.0,,43,1
44,715.4254576092119,2113.5513346549365,26343.035092088947,4.737961456190218,0.16126510173401074,390.06213027838373,64292.0,,44,1
45,717.0728214027133,2104.409955736216,25536.765950943434,4.883655097486533,0.17147273150263126,331.5182025466935,61928.0,,45,1
46,719.142928952706,2095.7702824210346,24095.536163228142,4.863374455998136,0.16154770834248008,305.4117006509082,60067.0,,46,1
47,721.3487024837912,2087.550416411975,23349.45790618233,4.8450992192505415,0.13742689705737382,334.2932714504618,56921.0,,47,1
48,723.7571064223555,2079.860172252171,22936.170840723127,4.8032945629287545,0.11251445567668826,317.84731939477854,57758.0,,48,1
49,726.2528877237307,2072.2316874622043,22141.430936668272,4.837877854923165,0.13667438955657873,296.75103628682837,55062.0,,49,1
50,728.5204415154992,2064.168979585865,22144.753291665624,4.8924849874923755,0.1228597904929867,303.32900825580197,55550.0,,50,1
51,730.4610004643287,2056.1648250057356,20748.698197257876,5.073125796863219,0.1297944085718363,299.08965113705415,54461.0,,51,1
52,731.993839775439,2048.087018403835,20332.422605140076,4.929752538587188,0.1284652895583591,277.4704650368483,51347.0,,52,1
53,734.0084825862658,2039.5653048243887,19020.48104838399,4.95386877866591,0.10904137358221516,287.9914223426551,49027.0,,53,1
54,735.6150680103548,2030.7421116477892,19412.807839416568,4.938472857609436,0.11797486586166997,297.53278712918325,49573.0,,54,1
55,737.1841206747184,2021.9960738078723,18943.40375741379,5.056856735819091,0.10586808992248337,276.2679044179537,47459.0,,55,1
56,738.3179589624467,2012.9279019965709,18375.637216907726,5.056315454710623,0.11946038354856155,266.41167745369125,44997.0,,56,1
57,739.7884621760353,2003.4226434468076,17816.077271139828,4.9325621845453815,0.1425071207409627,280.50468405212666,45978.0,,57,1
58,740.5837311127281,1994.3694148177303,16986.673224588096,4.843995498375508,0.15208912175491068,286.937713346077,42908.0,,58,1
59,741.4781393818572,1984.9831920086688,16940.090190579227,4.853019866139815,0.15313145267763117,288.9662673134387,43396.0,,59,1
60,741.9901061726111,1975.5164064340272,16632.083800298107,4.910195204876471,0.15142860386228402,285.5961258571711,42649.0,,60,1
61,742.8071011876078,1965.876536188448,16507.473059790424,4.900520039686362,0.16439700757388245,292.7060447984534,42984.0,,61,1
62,742.9328034812869,1955.8571186954564,16166.364972624866,4.726372386355237,0.22730430565694684,299.64689591690103,40997.0,,62,1
63,742.5904260240375,1946.2668130096913,15458.338033392596,4.6674239854397905,0.23152647638569984,294.7407235159519,39251.0,,63,1
64,742.2958358207286,1936.3614092425018,15306.965150126964,4.747649446150389,0.22134131177758698,273.5726562909863,39909.0,,64,1
65,741.4292458073146,1926.6150930168628,15705.77187447785,4.697445558416925,0.21420318618943096,279.036426465659,39603.0,,65,1
66,740.2886485779178,1916.3144801231613,15520.90404140515,4.662189525659531,0.2677686073383925,271.6283068812161,38502.0,,66,1
67,739.1336022564388,1906.7140652821543,14867.64545263192,4.611385766665363,0.24223864520311503,261.83352441677926,37674.0,,67,1
68,737.1076261527559,1896.79896530317,15172.693601514495,4.655994866602407,0.25591382086739467,273.0185243173943,37490.0,,68,1
69,735.0026004867797,1886.8254813109306,15612.047177731569,4.508335892019479,0.2489043376427981,272.2728583886026,38541.0,,69,1
70,732.8945266743394,1877.6004330128728,15941.72649200988,4.675189562343828,0.2181006095867565,267.0836707399227,39936.0,,70,1
71,730.546952708859,1868.0448596181416,15500.213232858676,4.535883603077667,0.28694333052227794,266.1878061750548,38418.0,,71,1
72,728.1261821050967,1858.3111740129975,15700.5755632725,4.60271665639079,0.27604343580162766,271.61187582252427,38968.0,,72,1
73,725.616123310001,1848.9371030033774,14877.30292422439,4.551679661324669,0.2502191464651552,259.68827498616184,37581.0,,73,1
74,723.9671704412469,1839.21722680222,13328.06911777539,4.469243745832064,0.21398709227212787,247.38077519658657,34859.0,,74,1
75,721.0489982007338,1829.6391725971487,15062.253893613886,4.614568180441962,0.25201713005114207,256.2863478835867,38753.0,,75,1
76,719.4265746684018,1819.4409043418536,15041.551893619202,4.676691681221987,0.28139135512731567,251.87133887685593,36355.0,,76,1
77,718.0978195867951,1809.3899873480489,15366.239764646667,4.6919334284972125,0.26679870948585405,267.89004054586394,38122.0,,77,1
78,717.2645872597475,1799.3497367948564,15099.32928515183,4.626793741304026,0.2570437568256008,257.72146290957636,36167.0,,78,1
79,716.758799115711,1789.1038124512133,14343.909423754063,4.365091688208323,0.20223105970515104,265.47536860032085,34100.0,,79,1
80,717.4540425992022,1778.6977418262431,14253.70183241299,4.399105938843945,0.20735544884562263,256.34944298614437,35563.0,,80,1
81,719.0191657148354,1768.7255583321014,15853.056304905436,4.313078248193639,0.17026213136367077,264.34917124948834,37436.0,,81,1
82,721.4654639669104,1759.4318440653403,16478.163984913623,4.480715942694885,0.12894327156864455,248.1071348325758,40896.0,,82,1
83,725.3326364158172,1751.7689035166886,17199.362609089665,4.4795407281455075,0.10621913874705381,250.86364919039337,42663.0,,83,1
84,729.2297182277002,1744.3427167433588,18303.647374999495,4.42684525818293,0.13688180615343049,261.1869485777239,45059.0,,84,1
85,733.1421911641,1737.7267610002302,18589.432013356316,4.409820092179614,0.11210351636887754,286.2570378905373,47636.0,,85,1
86,736.5400188254478,1731.415860330942,18851.302941123813,4.472640541874427,0.13402972889058196,298.70713184814326,47323.0,,86,1
87,739.7810639552423,1724.7676377810155,17593.272521975658,4.366240731324023,0.19324804718576144,287.2109497554514,44722.0,,87,1
88,742.5517454526382,1717.726644297105,16449.914467540104,4.345661356147909,0.17083231438796856,275.81468603861515,41539.0,,88,1
89,744.9721632908253,1710.5980882979977,14796.87348996408,4.248832122277933,0.2179765288790964,265.2153828217026,36264.0,,89,1
90,746.5379180586536,1702.903490487575,13400.029670932903,4.169380314808396,0.18190681964931862,266.366989687898,32506.0,,90,1
91,748.1243748724559,1694.8260970084289,12795.61511354895,4.378475121457466,0.2659963737240098,270.76825994534994,31535.0,,91,1
92,749.1912090108311,1686.099908866695,12003.10236763689,4.321162917711463,0.26457826437417525,229.84155943521412,29619.0,,92,1
93,749.562121992948,1677.221766123088,11902.750165328003,4.457808272481649,0.30828216225475247,258.18478902263075,29946.0,,93,1
94,749.2118407133863,1668.403138833818,12691.763043133653,4.303166034502449,0.2819988529034557,264.85612065963653,31065.0,,94,1
95,748.5063965644941,1659.3684206694286,12151.060368713008,4.363703354096369,0.30649839723100825,263.54048959916463,30826.0,,95,1
96,747.1922566301431,1650.7671571018318,13131.255755401082,4.232225787364848,0.16851779683137663,246.17308269587915,32147.0,,96,1
97,745.2723370393106,1642.1268638640686,13068.98054548353,4.098742438484462,0.15885001923486874,259.63838757346036,33972.0,,97,1
98,742.9085625797597,1634.1429703113338,13801.096497620718,3.951941521945588,0.1767709625993253,272.2228151776907,32857.0,,98,1
99,740.1011667864985,1626.3100905276963,12122.208811134036,4.082018403383621,0.10192497863611977,253.9740192633644,29318.0,,99,1
100,737.6070267485388,1618.1014675513027,12529.496387872736,3.9693369991711474,0.20567151872158823,271.70447716453634,27551.0,,100,1
101,735.1103135517318,1610.3602321217127,11012.67271355175,3.908571483426345,0.16363930368318533,251.41949724935978,24361.0,,101,1
102,733.575303965452,1602.0361456737262,13272.437553211948,3.9756516859399813,0.24068802819375978,277.4821662807367,31523.0,,102,1
103,731.7392944349959,1594.3944412949315,13236.550316691202,4.2792557197232375,0.16638362741360316,247.2459789567952,33068.0,,103,1
104,730.2740640817126,1586.2430194004435,13143.225659244197,4.0368002457634375,0.1629356950450137,251.55283088609008,33074.0,,104,1
105,728.7560687098724,1578.0008496689,12805.180458860723,4.047724790002968,0.11948686950616019,244.4362842091434,32472.0,,105,1
106,727.7217541311875,1569.0091365799842,12755.456062924346,4.1271703813663825,0.17121004682082294,234.89974970473372,31456.0,,106,1
107,727.173262224479,1559.573318695619,12540.379111317734,4.026536171765568,0.1371298838447376,233.92080920531035,30952.0,,107,1
108,727.1863796333096,1550.13716688476,13229.328700335473,4.166391873355646,0.15844671695541307,249.50157779740678,32927.0,,108,1
109,727.6321159343354,1540.708094838059,14622.373073243569,4.282824318634553,0.1903627184483884,260.6105441010184,33153.0,,109,1
110,728.1511471144205,1531.2694143639676,12320.174244795344,4.237823518028102,0.2405314273675533,232.09121124332611,27239.0,,110,1
111,729.579466322955,1521.0165562853254,10935.493216463285,4.175333232127479,0.2192336249764743,218.78571404961676,26853.0,,111,1
112,731.8634854206313,1511.8707379972693,13284.374141338318,4.204581473372785,0.1747240226727083,251.8962450866894,33058.0,,112,1
113,734.4783783260742,1503.8803335477069,14314.791760203983,4.248471546261077,0.1639604014175514,263.11571601521166,36564.0,,113,1
114,737.2971413691408,1495.8964257594907,13395.561934905154,3.9141752372607157,0.12734044118453636,269.5752131426052,32743.0,,114,1
115,740.7098704848981,1488.3997783546927,13212.230169347458,3.900352905406082,0.10979565048271799,292.7312118407094,32734.0,,115,1
116,743.8440009979764,1480.821122286581,12535.215662858165,3.8356868191254647,0.08574543837996577,280.3806366862166,31424.0,,116,1
117,746.8005614609269,1473.5598167121866,12977.074213896882,3.902760690435158,0.03000801927187594,315.7158131340123,32514.0,,117,1
118,749.3464934031406,1466.370675354018,12164.465597194003,3.8359456185298475,0.06797670864727254,260.43702451423064,30836.0,,118,1
119,751.8580142535076,1458.9800993426284,13091.909700192426,3.9943267363630994,0.09303762544040363,265.07998858153303,33333.0,,119,1
120,753.7736966395778,1451.088504156742,12683.583950927688,4.149433150116191,0.10852852948362354,242.63774293121702,32716.0,,120,1
121,755.3627995986234,1442.9243384220906,12045.503438828904,3.775717102517671,0.1393983662292413,242.75782122002005,29940.0,,121,1
122,756.9996062262129,1434.4303624183403,12976.915796271262,4.107251611714922,0.05537306813165618,235.00479760404184,31726.0,,122,1
123,758.2563316629647,1425.6981410018889,12245.370885907603,4.045252881534134,0.1166253409516676,233.95278004512147,30710.0,,123,1
124,759.1539626683818,1416.2106476282415,12550.534143257413,4.0746231480692945,0.06243331540239323,235.32877679520956,30413.0,,124,1
125,759.4783187427983,1407.5720128670555,12294.857417624517,3.9430562595348158,0.06665166540073808,225.45985812885485,30254.0,,125,1
126,759.3985824175985,1397.9937094963423,11830.859972349761,4.0394984952859385,0.11555795158324865,226.385546875243,28833.0,,126,1
127,758.9392166413941,1388.684512945662,12226.206031508822,4.037160719527728,0.1588294633666889,259.33219262243097,30194.0,,127,1
128,757.8125963658897,1379.5107152186724,12159.144757910877,3.84582241475953,0.16028651802087276,242.04607085655206,30323.0,,128,1
129,756.1148467299344,1370.5261719433731,11876.596359471445,3.957475526761327,0.13923099807003592,234.48439926948095,29777.0,,129,1
130,753.8695373446698,1361.722336997589,11670.339998143187,3.8041843375136213,0.15299568870957062,239.40181836682862,29318.0,,130,1
131,751.188085982393,1353.420393055317,12353.106352990375,3.7320832236650783,0.10722935135554516,232.3049126424762,30437.0,,131,1
132,748.3354487165324,1345.7468691716613,11791.874550382601,3.638620231438809,0.07754812801150587,240.4953241522851,29343.0,,132,1
133,745.2547553226358,1338.1449041100152,12475.830280323371,3.70552997455763,0.10780353981675862,244.51094953962763,30978.0,,133,1
134,742.2116603043617,1330.4838276493833,12637.09821839088,3.8494262307351033,0.07798776448604251,249.18819507084478,29863.0,,134,1
135,739.3561876937288,1323.3040866316196,13002.528337176396,3.854607859931756,0.07086105942186853,272.91634331627586,31505.0,,135,1
136,736.5250870056176,1315.9062688496738,11977.90528196225,3.872814129551824,0.1175849967509161,242.3167488062453,29849.0,,136,1
137,734.6636142515534,1308.2002489536233,12604.280499312552,4.037221460260829,0.05869149751907428,242.3297795069005,32336.0,,137,1
138,732.6370026320337,1300.055195322596,11941.017287278302,3.9259033693064707,0.08134535404454257,239.36200111698054,30414.0,,138,1
139,730.8052403709548,1291.41915968491,11332.67124372459,3.9546625339415176,0.09796270296396473,238.44831144199807,29344.0,,139,1
140,729.7541718584926,1282.5805717442918,12085.096748229751,4.023068950211311,0.11879894613219552,228.86324308472967,31604.0,,140,1
141,728.807458827574,1273.8834293713062,12394.574459591526,4.111152963209424,0.0935381075180684,222.33395737286162,31603.0,,141,1
142,728.3310212152946,1264.099060680361,11949.147434218452,3.966911282674853,0.14368851779639644,214.5079911339759,31478.0,,142,1
143,728.2281494413738,1254.7005956691323,12300.23347747979,4.0257168544244655,0.1312917441009432,224.59721519919992,31603.0,,143,1
144,728.6688245433575,1244.9507560608583,12495.067533045038,4.214236301485959,0.11962488652018698,212.38077881144216,32988.0,,144,1
145,729.4994686664637,1235.437705536847,12426.076159649116,4.182942865048402,0.1338630207050305,220.19729945271422,31491.0,,145,1
146,731.2192717744747,1226.1867453595753,12231.938261416346,4.1183361373251905,0.1043667254975767,227.60819575239412,30857.0,,146,1
147,733.6399370368409,1217.2109339238139,12587.05155836436,4.568872328574499,0.12028400248518203,216.26346156783097,32986.0,,147,1
148,736.1873625437222,1209.2002821295534,12731.584807771094,4.318874930525004,0.11841119422053455,241.82788844911377,31426.0,,148,1
149,739.5745895296782,1201.9241968377887,12563.199997677812,3.87083959543366,0.1116599504903871,257.9295917219282,31234.0,,149,1
150,742.3855929473376,1194.166494631765,12946.740336242718,3.9066189815843266,0.10365969465124944,287.7112919557745,31610.0,,150,1
151,745.4053156980399,1186.4712307381353,12485.870661816836,4.415007289251052,0.12930592808345914,253.66126826743545,31858.0,,151,1
152,747.8686389712054,1178.8139406627877,11937.329129195417,4.184372389544712,0.08015713521801039,273.93374521878155,29510.0,,152,1
153,750.366290666343,1170.935780486803,11446.58053984881,4.370294360430528,0.07506428866564259,235.22413917655956,29106.0,,153,1
